#camera velocity
1	0.0121129	0	1	0.0160118	0	1	0.00189301	0	1	0.0174533	0	1	-0.00872665	0	1	0.0174533	0	
2	0.0111796	0	2	0.0142354	0	2	0.0013381	0	2	0.015708	0	2	-0.00785398	0	2	0.015708	0	
3	0.0102817	0	3	0.0126609	0	3	0.000908761	0	3	0.0141372	0	3	-0.00706858	0	3	0.0141372	0	
4	0.00942789	0	4	0.011266	0	4	0.000579092	0	4	0.0127235	0	4	-0.00636173	0	4	0.0127235	0	
5	0.00862345	0	5	0.0100303	0	5	0.000328282	0	5	0.0114511	0	5	-0.00572555	0	5	0.0114511	0	
6	0.00787102	0	6	0.00893545	0	6	0.000139644	0	6	0.010306	0	6	-0.005153	0	6	0.010306	0	
7	0.00717135	0	7	0.00796509	0	7	-1.64913e-07	0	7	0.0092754	0	7	-0.0046377	0	7	0.0092754	0	
8	0.00652386	0	8	0.00710458	0	8	-0.000101793	0	8	0.00834786	0	8	-0.00417393	0	8	0.00834786	0	
9	0.00592702	0	9	0.00634099	0	9	-0.000173719	0	9	0.00751307	0	9	-0.00375654	0	9	0.00751307	0	
10	0.00537866	0	10	0.00566292	0	10	-0.000222674	0	10	0.00676176	0	10	-0.00338088	0	10	0.00676176	0	
11	0.00487624	0	11	0.00506034	0	11	-0.000253996	0	11	0.00608559	0	11	-0.00304279	0	11	0.00608559	0	
12	0.00441698	0	12	0.00452443	0	12	-0.000271899	0	12	0.00547703	0	12	-0.00273851	0	12	0.00547703	0	
13	0.003998	0	13	0.00404743	0	13	-0.000279705	0	13	0.00492933	0	13	-0.00246466	0	13	0.00492933	0	
14	0.00361641	0	14	0.00362253	0	14	-0.000280021	0	14	0.00443639	0	14	-0.0022182	0	14	0.00443639	0	
15	0.00326938	0	15	0.00324378	0	15	-0.000274887	0	15	0.00399275	0	15	-0.00199638	0	15	0.00399275	0	
16	0.00295418	0	16	0.00290589	0	16	-0.000265887	0	16	0.00359348	0	16	-0.00179674	0	16	0.00359348	0	
17	0.00266819	0	17	0.00260427	0	17	-0.00025425	0	17	0.00323413	0	17	-0.00161707	0	17	0.00323413	0	
18	0.00240896	0	18	0.00233483	0	18	-0.000240916	0	18	0.00291072	0	18	-0.00145536	0	18	0.00291072	0	
19	0.00217417	0	19	0.00209399	0	19	-0.000226605	0	19	0.00261965	0	19	-0.00130982	0	19	0.00261965	0	
20	0.00196167	0	20	0.0018786	0	20	-0.000211857	0	20	0.00235768	0	20	-0.00117884	0	20	0.00235768	0	
21	0.00176946	0	21	0.00168586	0	21	-0.000197072	0	21	0.00212191	0	21	-0.00106096	0	21	0.00212191	0	
22	0.00159571	0	22	0.0015133	0	22	-0.000182544	0	22	0.00190972	0	22	-0.000954861	0	22	0.00190972	0	
23	0.00143871	0	23	0.00135874	0	23	-0.000168481	0	23	0.00171875	0	23	-0.000859375	0	23	0.00171875	0	
24	0.00129692	0	24	0.00122024	0	24	-0.000155025	0	24	0.00154687	0	24	-0.000773437	0	24	0.00154687	0	
25	0.0011689	0	25	0.00109608	0	25	-0.000142267	0	25	0.00139219	0	25	-0.000696094	0	25	0.00139219	0	
26	0.00105337	0	26	0.000984731	0	26	-0.000130262	0	26	0.00125297	0	26	-0.000626484	0	26	0.00125297	0	
27	0.000949123	0	27	0.000884848	0	27	-0.000119035	0	27	0.00112767	0	27	-0.000563836	0	27	0.00112767	0	
28	0.000855094	0	28	0.000795217	0	28	-0.000108587	0	28	0.0010149	0	28	-0.000507452	0	28	0.0010149	0	
29	0.000770298	0	29	0.000714765	0	29	-9.8907e-05	0	29	0.000913414	0	29	-0.000456707	0	29	0.000913414	0	
30	0.000693845	0	30	0.000642534	0	30	-8.99705e-05	0	30	0.000822073	0	30	-0.000411036	0	30	0.000822073	0	
31	0.000624927	0	31	0.000577668	0	31	-8.1746e-05	0	31	0.000739865	0	31	-0.000369933	0	31	0.000739865	0	
32	0.000562811	0	32	0.000519404	0	32	-7.4197e-05	0	32	0.000665879	0	32	-0.000332939	0	32	0.000665879	0	
33	0.000506835	0	33	0.00046706	0	33	-6.72838e-05	0	33	0.000599291	0	33	-0.000299645	0	33	0.000599291	0	
34	0.000456398	0	34	0.000420027	0	34	-6.09655e-05	0	34	0.000539362	0	34	-0.000269681	0	34	0.000539362	0	
35	0.000410958	0	35	0.000377759	0	35	-5.52011e-05	0	35	0.000485426	0	35	-0.000242713	0	35	0.000485426	0	
36	0.000370023	0	36	0.000339768	0	36	-4.99499e-05	0	36	0.000436883	0	36	-0.000218442	0	36	0.000436883	0	
37	0.000333152	0	37	0.000305617	0	37	-4.51727e-05	0	37	0.000393195	0	37	-0.000196597	0	37	0.000393195	0	
38	0.000299942	0	38	0.000274914	0	38	-4.08318e-05	0	38	0.000353875	0	38	-0.000176938	0	38	0.000353875	0	
39	0.000270033	0	39	0.000247308	0	39	-3.68914e-05	0	39	0.000318488	0	39	-0.000159244	0	39	0.000318488	0	
40	0.000243099	0	40	0.000222484	0	40	-3.33179e-05	0	40	0.000286639	0	40	-0.000143319	0	40	0.000286639	0	
41	0.000218845	0	41	0.000200161	0	41	-3.00798e-05	0	41	0.000257975	0	41	-0.000128988	0	41	0.000257975	0	
42	0.000197006	0	42	0.000180083	0	42	-2.71477e-05	0	42	0.000232178	0	42	-0.000116089	0	42	0.000232178	0	
43	0.000177342	0	43	0.000162026	0	43	-2.44944e-05	0	43	0.00020896	0	43	-0.00010448	0	43	0.00020896	0	
44	0.000159638	0	44	0.000145783	0	44	-2.20947e-05	0	44	0.000188064	0	44	-9.40319e-05	0	44	0.000188064	0	
45	0.000143698	0	45	0.000131172	0	45	-1.99255e-05	0	45	0.000169257	0	45	-8.46287e-05	0	45	0.000169257	0	
46	0.000129348	0	46	0.000118029	0	46	-1.79656e-05	0	46	0.000152332	0	46	-7.61659e-05	0	46	0.000152332	0	
47	0.000116429	0	47	0.000106205	0	47	-1.61955e-05	0	47	0.000137099	0	47	-6.85493e-05	0	47	0.000137099	0	
48	0.000104799	0	48	9.55668e-05	0	48	-1.45974e-05	0	48	0.000123389	0	48	-6.16943e-05	0	48	0.000123389	0	
49	9.43292e-05	0	49	8.59961e-05	0	49	-1.3155e-05	0	49	0.00011105	0	49	-5.55249e-05	0	49	0.00011105	0	
50	8.49046e-05	0	50	7.73852e-05	0	50	-1.18535e-05	0	50	9.99448e-05	0	50	-4.99724e-05	0	50	9.99448e-05	0	
51	7.64209e-05	0	51	6.96375e-05	0	51	-1.06796e-05	0	51	8.99503e-05	0	51	-4.49752e-05	0	51	8.99503e-05	0	
52	6.87843e-05	0	52	6.26663e-05	0	52	-9.62081e-06	0	52	8.09553e-05	0	52	-4.04777e-05	0	52	8.09553e-05	0	
53	6.19104e-05	0	53	5.63936e-05	0	53	-8.6662e-06	0	53	7.28598e-05	0	53	-3.64299e-05	0	53	7.28598e-05	0	
54	5.57229e-05	0	54	5.07494e-05	0	54	-7.80562e-06	0	54	6.55738e-05	0	54	-3.27869e-05	0	54	6.55738e-05	0	
55	5.01535e-05	0	55	4.56705e-05	0	55	-7.02996e-06	0	55	5.90164e-05	0	55	-2.95082e-05	0	55	5.90164e-05	0	
56	4.51406e-05	0	56	4.11002e-05	0	56	-6.33093e-06	0	56	5.31148e-05	0	56	-2.65574e-05	0	56	5.31148e-05	0	
57	4.06284e-05	0	57	3.69876e-05	0	57	-5.70105e-06	0	57	4.78033e-05	0	57	-2.39017e-05	0	57	4.78033e-05	0	
58	3.65671e-05	0	58	3.32867e-05	0	58	-5.13355e-06	0	58	4.3023e-05	0	58	-2.15115e-05	0	58	4.3023e-05	0	
59	3.29117e-05	0	59	2.99564e-05	0	59	-4.6223e-06	0	59	3.87207e-05	0	59	-1.93603e-05	0	59	3.87207e-05	0	
60	2.96215e-05	0	60	2.69593e-05	0	60	-4.16178e-06	0	60	3.48486e-05	0	60	-1.74243e-05	0	60	3.48486e-05	0	
61	2.66602e-05	0	61	2.42623e-05	0	61	-3.74698e-06	0	61	3.13637e-05	0	61	-1.56819e-05	0	61	3.13637e-05	0	
62	2.39948e-05	0	62	2.18352e-05	0	62	-3.3734e-06	0	62	2.82274e-05	0	62	-1.41137e-05	0	62	2.82274e-05	0	
63	2.15959e-05	0	63	1.96509e-05	0	63	-3.03697e-06	0	63	2.54046e-05	0	63	-1.27023e-05	0	63	2.54046e-05	0	
64	1.94367e-05	0	64	1.76852e-05	0	64	-2.73401e-06	0	64	2.28642e-05	0	64	-1.14321e-05	0	64	2.28642e-05	0	
65	1.74934e-05	0	65	1.59162e-05	0	65	-2.4612e-06	0	65	2.05778e-05	0	65	-1.02889e-05	0	65	2.05778e-05	0	
66	1.57444e-05	0	66	1.43242e-05	0	66	-2.21556e-06	0	66	1.852e-05	0	66	-9.25999e-06	0	66	1.852e-05	0	
67	1.41702e-05	0	67	1.28915e-05	0	67	-1.9944e-06	0	67	1.6668e-05	0	67	-8.33399e-06	0	67	1.6668e-05	0	
68	1.27533e-05	0	68	1.16021e-05	0	68	-1.79527e-06	0	68	1.50012e-05	0	68	-7.50059e-06	0	68	1.50012e-05	0	
69	1.14782e-05	0	69	1.04417e-05	0	69	-1.616e-06	0	69	1.35011e-05	0	69	-6.75053e-06	0	69	1.35011e-05	0	
70	1.03305e-05	0	70	9.39732e-06	0	70	-1.45461e-06	0	70	1.2151e-05	0	70	-6.07548e-06	0	70	1.2151e-05	0	
71	9.29752e-06	0	71	8.45745e-06	0	71	-1.30932e-06	0	71	1.09359e-05	0	71	-5.46793e-06	0	71	1.09359e-05	0	
72	8.36785e-06	0	72	7.6116e-06	0	72	-1.17852e-06	0	72	9.84228e-06	0	72	-4.92114e-06	0	72	9.84228e-06	0	
73	7.53113e-06	0	73	6.85035e-06	0	73	-1.06078e-06	0	73	8.85805e-06	0	73	-4.42902e-06	0	73	8.85805e-06	0	
74	6.77807e-06	0	74	6.16524e-06	0	74	-9.54792e-07	0	74	7.97224e-06	0	74	-3.98612e-06	0	74	7.97224e-06	0	
75	6.1003e-06	0	75	5.54866e-06	0	75	-8.59385e-07	0	75	7.17502e-06	0	75	-3.58751e-06	0	75	7.17502e-06	0	
76	5.49031e-06	0	76	4.99374e-06	0	76	-7.73505e-07	0	76	6.45752e-06	0	76	-3.22876e-06	0	76	6.45752e-06	0	
77	4.94131e-06	0	77	4.49433e-06	0	77	-6.96202e-07	0	77	5.81177e-06	0	77	-2.90588e-06	0	77	5.81177e-06	0	
78	4.4472e-06	0	78	4.04487e-06	0	78	-6.2662e-07	0	78	5.23059e-06	0	78	-2.61529e-06	0	78	5.23059e-06	0	
